Date,Open,High,Low,Close,Volume
2023-09-08,17.399999618530273,17.399999618530273,16.100000381469727,16.25,426389
2023-09-11,16.5,16.649999618530273,16.049999237060547,16.149999618530273,138717
2023-09-12,16.350000381469727,16.350000381469727,14.800000190734863,14.949999809265137,333266
2023-09-13,14.850000381469728,15.800000190734863,14.550000190734863,15.649999618530272,221663
2023-09-14,15.949999809265137,16.0,15.5,15.550000190734863,81241
2023-09-15,15.5,16.5,15.399999618530272,16.200000762939453,340043
2023-09-18,16.450000762939453,16.450000762939453,15.5,15.75,97704
2023-09-20,15.699999809265137,15.699999809265137,15.050000190734863,15.199999809265137,123029
2023-09-21,15.149999618530272,15.75,15.100000381469728,15.199999809265137,71633
2023-09-22,15.199999809265137,15.399999618530272,14.949999809265137,15.050000190734863,51555
2023-09-25,15.300000190734863,15.649999618530272,15.149999618530272,15.399999618530272,75749
2023-09-26,15.5,15.5,15.050000190734863,15.100000381469728,130187
2023-09-27,15.300000190734863,15.399999618530272,14.800000190734863,15.0,56339
2023-09-28,15.0,15.300000190734863,14.75,14.800000190734863,91717
2023-09-29,14.800000190734863,15.0,14.600000381469728,14.699999809265137,34641
2023-10-03,14.800000190734863,15.0,14.600000381469728,14.850000381469728,39180
2023-10-04,15.0,15.0,14.800000190734863,14.949999809265137,50070
2023-10-05,14.899999618530272,15.0,14.550000190734863,14.699999809265137,32080
2023-10-06,14.949999809265137,15.25,14.75,15.050000190734863,49813
2023-10-09,15.050000190734863,15.149999618530272,14.600000381469728,14.699999809265137,38518
2023-10-10,14.899999618530272,15.050000190734863,14.399999618530272,14.600000381469728,69657
2023-10-11,14.649999618530272,16.299999237060547,14.600000381469728,16.149999618530273,721276
2023-10-12,16.399999618530273,16.399999618530273,15.5,15.899999618530272,198664
2023-10-13,16.0,16.0,15.5,15.550000190734863,105239
2023-10-16,15.800000190734863,16.0,15.149999618530272,15.399999618530272,205377
2023-10-17,15.449999809265137,15.699999809265137,15.25,15.350000381469728,93352
2023-10-18,15.350000381469728,15.5,14.949999809265137,15.100000381469728,108343
2023-10-19,15.100000381469728,15.199999809265137,14.800000190734863,14.949999809265137,83492
2023-10-20,15.050000190734863,15.399999618530272,14.800000190734863,15.0,42346
2023-10-23,15.199999809265137,15.199999809265137,13.550000190734863,13.800000190734863,97044
2023-10-25,14.050000190734863,14.550000190734863,13.800000190734863,14.050000190734863,422522
2023-10-26,13.850000381469728,14.100000381469728,13.25,13.5,142623
2023-10-27,13.5,14.100000381469728,13.5,13.699999809265137,328751
2023-10-30,13.699999809265137,14.100000381469728,13.649999618530272,13.75,229545
2023-10-31,13.75,13.949999809265137,13.600000381469728,13.800000190734863,42043
2023-11-01,14.0,14.100000381469728,13.699999809265137,13.800000190734863,276966
2023-11-02,13.800000190734863,14.199999809265137,13.800000190734863,13.899999618530272,500116
2023-11-03,14.100000381469728,14.399999618530272,14.0,14.050000190734863,255031
2023-11-06,14.0,14.699999809265137,14.0,14.5,814688
2023-11-07,14.699999809265137,14.699999809265137,14.399999618530272,14.449999809265137,156940
2023-11-08,14.75,15.050000190734863,14.600000381469728,14.800000190734863,431103
2023-11-09,14.75,15.050000190734863,14.350000381469728,14.449999809265137,635529
2023-11-10,14.649999618530272,16.200000762939453,14.449999809265137,15.649999618530272,1345542
2023-11-13,15.699999809265137,15.800000190734863,15.300000190734863,15.449999809265137,327788
2023-11-15,15.5,15.75,15.25,15.350000381469728,473832
2023-11-16,15.350000381469728,15.449999809265137,15.050000190734863,15.199999809265137,872176
2023-11-17,15.100000381469728,15.75,14.949999809265137,15.5,955462
2023-11-20,15.350000381469728,17.799999237060547,15.350000381469728,16.950000762939453,2020875
2023-11-21,17.75,18.200000762939453,17.299999237060547,17.950000762939453,1713511
2023-11-22,18.14999961853028,18.14999961853028,16.399999618530273,16.700000762939453,653775
2023-11-23,16.700000762939453,17.149999618530273,16.5,16.700000762939453,274110
2023-11-24,16.899999618530273,17.299999237060547,16.799999237060547,17.049999237060547,498725
2023-11-28,17.450000762939453,17.5,16.600000381469727,16.75,705319
2023-11-29,17.0,17.0,16.5,16.549999237060547,734543
2023-11-30,16.600000381469727,16.75,15.800000190734863,15.949999809265137,525311
2023-12-01,16.200000762939453,16.5,15.899999618530272,16.149999618530273,484883
2023-12-04,16.5,16.5,16.049999237060547,16.149999618530273,77410
2023-12-05,16.299999237060547,16.350000381469727,15.75,16.049999237060547,221430
2023-12-06,16.399999618530273,17.600000381469727,16.350000381469727,17.0,972702
2023-12-07,17.200000762939453,17.649999618530273,16.5,17.100000381469727,323111
2023-12-08,17.350000381469727,17.350000381469727,16.649999618530273,16.75,146779
2023-12-11,17.0,17.0,16.450000762939453,16.549999237060547,219606
2023-12-12,16.75,16.950000762939453,16.350000381469727,16.450000762939453,192802
2023-12-13,16.600000381469727,16.75,16.200000762939453,16.399999618530273,132498
2023-12-14,16.5,16.799999237060547,16.149999618530273,16.350000381469727,155896
2023-12-15,16.5,16.5,16.149999618530273,16.200000762939453,81797
2023-12-18,16.25,19.39999961853028,16.25,18.89999961853028,2511418
2023-12-19,19.600000381469727,19.799999237060547,18.049999237060547,18.950000762939453,1926599
2023-12-20,18.700000762939453,19.799999237060547,17.899999618530273,18.14999961853028,1198050
2023-12-21,18.39999961853028,19.299999237060547,17.600000381469727,18.950000762939453,753780
2023-12-22,19.350000381469727,19.350000381469727,18.14999961853028,18.350000381469727,283104
2023-12-26,18.600000381469727,18.850000381469727,17.75,18.200000762939453,254886
2023-12-27,18.25,18.700000762939453,17.299999237060547,17.5,285999
2023-12-28,17.600000381469727,17.700000762939453,16.5,16.649999618530273,429151
2023-12-29,16.799999237060547,17.950000762939453,16.75,17.5,225203
2024-01-01,17.700000762939453,19.049999237060547,17.549999237060547,18.299999237060547,536360
2024-01-02,18.75,20.799999237060547,18.450000762939453,20.25,2746516
2024-01-03,20.450000762939453,20.700000762939453,19.600000381469727,19.850000381469727,615802
2024-01-04,19.89999961853028,20.200000762939453,19.450000762939453,19.549999237060547,357173
2024-01-05,19.600000381469727,19.799999237060547,18.39999961853028,19.25,570521
2024-01-08,19.25,20.200000762939453,19.049999237060547,19.64999961853028,542363
2024-01-09,19.799999237060547,20.700000762939453,19.25,20.350000381469727,692641
2024-01-10,20.049999237060547,20.450000762939453,19.799999237060547,19.950000762939453,359423
2024-01-11,19.950000762939453,20.200000762939453,19.450000762939453,19.700000762939453,178537
2024-01-12,19.700000762939453,20.39999961853028,19.200000762939453,19.350000381469727,395051
2024-01-15,19.450000762939453,20.549999237060547,19.299999237060547,19.950000762939453,545691
2024-01-16,20.549999237060547,20.600000381469727,19.0,19.549999237060547,438396
2024-01-17,19.549999237060547,19.799999237060547,18.850000381469727,19.14999961853028,172470
2024-01-18,19.049999237060547,19.799999237060547,18.39999961853028,19.200000762939453,199832
2024-01-19,19.39999961853028,20.39999961853028,19.14999961853028,19.75,464185
2024-01-23,19.5,19.75,17.899999618530273,18.25,307197
2024-01-24,18.299999237060547,18.600000381469727,17.700000762939453,17.899999618530273,522103
2024-01-25,18.049999237060547,18.950000762939453,18.0,18.549999237060547,505999
2024-01-29,18.850000381469727,19.350000381469727,18.350000381469727,18.549999237060547,473863
2024-01-30,18.799999237060547,19.89999961853028,18.100000381469727,19.299999237060547,881136
2024-01-31,19.299999237060547,19.799999237060547,18.850000381469727,18.950000762939453,461047
2024-02-01,19.25,19.39999961853028,18.5,18.64999961853028,328657
2024-02-02,18.850000381469727,19.200000762939453,18.39999961853028,18.5,312814
2024-02-05,18.700000762939453,19.350000381469727,18.0,18.14999961853028,255041
2024-02-06,18.450000762939453,21.75,18.0,21.75,4434228
2024-02-07,21.89999961853028,24.350000381469727,20.5,23.049999237060547,6061557
2024-02-08,23.700000762939453,23.89999961853028,22.39999961853028,23.350000381469727,1453883
2024-02-09,24.0,24.0,21.0,21.950000762939453,1023722
2024-02-12,22.0,22.39999961853028,19.299999237060547,19.64999961853028,702268
2024-02-13,19.049999237060547,20.14999961853028,18.700000762939453,19.25,471798
2024-02-14,18.850000381469727,20.39999961853028,18.850000381469727,20.25,410323
2024-02-15,20.850000381469727,21.200000762939453,20.450000762939453,20.700000762939453,326424
2024-02-16,21.049999237060547,21.700000762939453,20.850000381469727,21.25,374675
2024-02-19,21.64999961853028,21.64999961853028,20.600000381469727,20.700000762939453,221074
2024-02-20,20.700000762939453,21.14999961853028,20.0,20.14999961853028,259170
2024-02-21,20.25,21.0,19.450000762939453,19.700000762939453,426046
2024-02-22,19.89999961853028,20.850000381469727,19.200000762939453,20.350000381469727,471362
2024-02-23,20.5,20.700000762939453,19.799999237060547,19.89999961853028,205478
2024-02-26,20.0,20.100000381469727,19.0,19.200000762939453,349526
2024-02-27,19.350000381469727,19.950000762939453,18.549999237060547,18.89999961853028,351210
2024-02-28,19.0,19.299999237060547,17.899999618530273,18.299999237060547,353315
2024-02-29,18.299999237060547,18.5,17.950000762939453,18.350000381469727,104803
2024-03-01,18.549999237060547,19.350000381469727,18.299999237060547,19.14999961853028,375337
2024-03-04,19.299999237060547,20.5,18.600000381469727,19.600000381469727,1032288
2024-03-05,19.600000381469727,20.700000762939453,19.14999961853028,19.39999961853028,430469
2024-03-06,19.5,19.600000381469727,18.350000381469727,18.850000381469727,259658
2024-03-07,18.600000381469727,19.200000762939453,18.600000381469727,18.75,93568
2024-03-11,18.950000762939453,18.950000762939453,17.899999618530273,18.200000762939453,166822
2024-03-12,18.14999961853028,18.25,16.600000381469727,16.850000381469727,278542
2024-03-13,16.600000381469727,17.049999237060547,15.199999809265137,15.399999618530272,326514
2024-03-14,15.300000190734863,16.149999618530273,14.800000190734863,15.75,323350
2024-03-15,15.899999618530272,16.299999237060547,15.550000190734863,15.899999618530272,139280
2024-03-18,15.649999618530272,16.299999237060547,15.600000381469728,15.949999809265137,101099
2024-03-19,15.649999618530272,16.100000381469727,15.149999618530272,15.350000381469728,156688
2024-03-20,15.25,15.649999618530272,14.550000190734863,14.899999618530272,175876
2024-03-21,15.0,16.5,14.949999809265137,16.049999237060547,618976
2024-03-22,16.049999237060547,16.149999618530273,15.600000381469728,15.75,155728
2024-03-26,16.0,16.149999618530273,15.399999618530272,15.5,123171
2024-03-27,15.399999618530272,15.75,14.5,14.800000190734863,307388
2024-03-28,15.0,15.449999809265137,14.550000190734863,14.649999618530272,164925
2024-04-01,14.5,16.200000762939453,14.399999618530272,16.100000381469727,220502
2024-04-02,16.049999237060547,16.75,15.800000190734863,16.600000381469727,154019
2024-04-03,16.950000762939453,17.600000381469727,16.549999237060547,17.299999237060547,301469
2024-04-04,17.950000762939453,20.200000762939453,17.100000381469727,19.549999237060547,1437274
2024-04-05,19.549999237060547,21.25,18.799999237060547,20.850000381469727,1624947
2024-04-08,21.549999237060547,21.549999237060547,19.600000381469727,19.75,367879
2024-04-09,19.950000762939453,20.89999961853028,19.39999961853028,19.5,248792
2024-04-10,19.549999237060547,20.200000762939453,19.200000762939453,19.350000381469727,168929
2024-04-12,19.049999237060547,19.89999961853028,18.299999237060547,18.89999961853028,238854
2024-04-15,17.799999237060547,19.299999237060547,17.299999237060547,19.100000381469727,367991
2024-04-16,19.100000381469727,21.0,18.5,21.0,1304407
2024-04-18,21.39999961853028,23.100000381469727,21.14999961853028,22.14999961853028,1986566
2024-04-19,22.0,22.25,20.89999961853028,22.100000381469727,346575
2024-04-22,23.049999237060547,23.200000762939453,21.600000381469727,22.450000762939453,371283
2024-04-23,22.049999237060547,22.89999961853028,21.799999237060547,22.049999237060547,245867
2024-04-24,22.0,22.5,21.89999961853028,22.0,287056
2024-04-25,22.25,22.25,21.0,21.350000381469727,173168
2024-04-26,21.350000381469727,21.799999237060547,21.350000381469727,21.600000381469727,106113
2024-04-29,21.950000762939453,21.950000762939453,21.5,21.700000762939453,117777
2024-04-30,22.0,22.700000762939453,21.64999961853028,22.049999237060547,256537
2024-05-02,22.350000381469727,23.25,21.14999961853028,22.89999961853028,800970
2024-05-03,22.950000762939453,23.0,22.39999961853028,22.600000381469727,178059
2024-05-06,22.75,22.850000381469727,22.14999961853028,22.450000762939453,193243
2024-05-07,23.0,23.0,21.799999237060547,22.100000381469727,146988
2024-05-08,22.5,22.700000762939453,21.950000762939453,22.049999237060547,86039
2024-05-09,22.200000762939453,22.25,20.14999961853028,20.799999237060547,112511
2024-05-10,20.39999961853028,20.850000381469727,20.14999961853028,20.600000381469727,42582
2024-05-13,20.600000381469727,20.850000381469727,19.600000381469727,20.200000762939453,52836
2024-05-14,19.799999237060547,22.049999237060547,19.700000762939453,21.549999237060547,173093
2024-05-15,21.75,22.25,21.0,21.5,73362
2024-05-16,21.89999961853028,21.89999961853028,21.0,21.049999237060547,55536
2024-05-17,20.600000381469727,22.200000762939453,20.600000381469727,21.450000762939453,160020
2024-05-21,21.0,22.0,20.5,21.25,167699
2024-05-22,21.39999961853028,21.450000762939453,20.700000762939453,21.0,65009
2024-05-23,21.049999237060547,21.350000381469727,20.600000381469727,20.700000762939453,44899
2024-05-24,20.950000762939453,21.049999237060547,20.299999237060547,20.549999237060547,45103
2024-05-27,20.600000381469727,20.89999961853028,20.100000381469727,20.25,58758
2024-05-28,20.0,20.450000762939453,19.850000381469727,19.89999961853028,46062
2024-05-29,19.700000762939453,21.100000381469727,19.700000762939453,20.700000762939453,109213
2024-05-30,20.950000762939453,21.100000381469727,19.64999961853028,20.100000381469727,68494
2024-05-31,20.0,20.299999237060547,19.549999237060547,19.700000762939453,64092
2024-06-03,19.75,20.450000762939453,19.64999961853028,19.799999237060547,46103
2024-06-04,20.14999961853028,20.14999961853028,17.850000381469727,18.350000381469727,220207
2024-06-05,18.350000381469727,18.89999961853028,17.5,18.299999237060547,96204
2024-06-06,18.450000762939453,19.850000381469727,18.350000381469727,19.549999237060547,83179
2024-06-07,19.89999961853028,21.5,19.39999961853028,20.0,186798
2024-06-10,20.89999961853028,20.89999961853028,20.01000022888184,20.209999084472656,53281
2024-06-11,20.3799991607666,20.799999237060547,19.8700008392334,20.209999084472656,66456
2024-06-12,20.25,20.5,19.559999465942383,19.96999931335449,82620
2024-06-13,20.280000686645508,20.280000686645508,19.850000381469727,19.90999984741211,41243
2024-06-14,19.950000762939453,20.89999961853028,19.8799991607666,20.020000457763672,186163
2024-06-18,20.049999237060547,20.489999771118164,19.5,19.6299991607666,124568
2024-06-19,19.850000381469727,19.850000381469727,19.01000022888184,19.18000030517578,76697
2024-06-20,19.3799991607666,19.57999992370605,19.0,19.09000015258789,120780
2024-06-21,19.299999237060547,19.530000686645508,19.049999237060547,19.459999084472656,77355
2024-06-24,19.64999961853028,20.13999938964844,19.39999961853028,19.459999084472656,127706
2024-06-25,19.489999771118164,19.89999961853028,19.26000022888184,19.31999969482422,89751
2024-06-26,19.299999237060547,19.8700008392334,19.0,19.530000686645508,137472
2024-06-27,19.530000686645508,19.63999938964844,19.36000061035156,19.56999969482422,88836
2024-06-28,19.790000915527344,19.790000915527344,19.170000076293945,19.61000061035156,135717
2024-07-01,19.739999771118164,20.75,19.6200008392334,20.5,204523
2024-07-02,20.51000022888184,21.799999237060547,20.020000457763672,21.15999984741211,666799
2024-07-03,21.479999542236328,21.790000915527344,20.89999961853028,20.93000030517578,147120
2024-07-04,20.799999237060547,21.18000030517578,20.14999961853028,20.280000686645508,47598
2024-07-05,20.700000762939453,21.799999237060547,20.100000381469727,21.020000457763672,168096
2024-07-08,21.440000534057617,21.920000076293945,20.5,21.020000457763672,289215
2024-07-09,21.239999771118164,21.989999771118164,20.950000762939453,20.96999931335449,160139
2024-07-10,21.229999542236328,21.229999542236328,20.299999237060547,20.6200008392334,76323
2024-07-11,20.950000762939453,20.950000762939453,20.299999237060547,20.34000015258789,61478
2024-07-12,20.25,21.39999961853028,20.25,21.100000381469727,149216
2024-07-15,21.46999931335449,21.46999931335449,20.57999992370605,20.729999542236328,62068
2024-07-16,20.96999931335449,20.96999931335449,20.1200008392334,20.270000457763672,83161
2024-07-18,20.31999969482422,21.25,19.809999465942383,20.46999931335449,199309
2024-07-19,20.670000076293945,20.700000762939453,19.809999465942383,20.06999969482422,83057
2024-07-22,19.950000762939453,20.06999969482422,19.799999237060547,19.84000015258789,36919
2024-07-23,19.850000381469727,20.239999771118164,19.0,19.75,188638
2024-07-24,19.520000457763672,21.71999931335449,19.520000457763672,21.600000381469727,602057
2024-07-25,21.5,23.270000457763672,21.049999237060547,21.739999771118164,791043
2024-07-26,21.739999771118164,22.190000534057617,21.1200008392334,21.25,112955
2024-07-29,21.059999465942383,21.459999084472656,20.61000061035156,20.959999084472656,101884
2024-07-30,20.520000457763672,21.64999961853028,20.520000457763672,21.1299991607666,72161
2024-07-31,21.0,21.43000030517578,20.700000762939453,20.82999992370605,91101
2024-08-01,21.38999938964844,21.38999938964844,20.25,20.459999084472656,86999
2024-08-02,20.5,20.959999084472656,19.86000061035156,20.770000457763672,100794
2024-08-05,20.520000457763672,20.520000457763672,19.38999938964844,19.850000381469727,187224
2024-08-06,20.25,20.38999938964844,19.11000061035156,19.39999961853028,66892
2024-08-07,19.670000076293945,21.450000762939453,19.020000457763672,20.299999237060547,310962
2024-08-08,20.049999237060547,20.86000061035156,20.0,20.1200008392334,36935
2024-08-09,20.530000686645508,22.780000686645508,20.200000762939453,21.82999992370605,923112
2024-08-12,21.989999771118164,22.39999961853028,21.229999542236328,21.3799991607666,263170
2024-08-13,21.780000686645508,21.780000686645508,20.200000762939453,20.309999465942383,96181
2024-08-14,20.3700008392334,20.59000015258789,19.809999465942383,19.940000534057617,41942
2024-08-16,19.950000762939453,20.440000534057617,19.950000762939453,20.11000061035156,42862
2024-08-19,20.34000015258789,22.799999237060547,19.84000015258789,22.38999938964844,564336
2024-08-20,25.0,25.350000381469727,21.739999771118164,23.530000686645508,3481112
2024-08-21,23.5,24.84000015258789,22.799999237060547,23.040000915527344,896280
2024-08-22,23.3700008392334,23.89999961853028,22.51000022888184,22.61000061035156,161195
2024-08-23,22.600000381469727,23.489999771118164,21.89999961853028,22.25,367057
2024-08-26,22.700000762939453,23.450000762939453,22.100000381469727,22.63999938964844,98490
2024-08-27,22.8799991607666,22.8799991607666,21.020000457763672,21.530000686645508,221554
2024-08-28,21.68000030517578,21.989999771118164,20.81999969482422,20.979999542236328,202537
2024-08-29,21.190000534057617,21.799999237060547,20.64999961853028,20.729999542236328,139786
2024-08-30,20.93000030517578,21.440000534057617,20.059999465942383,20.979999542236328,521817
2024-09-02,21.299999237060547,22.739999771118164,20.850000381469727,22.13999938964844,637951
2024-09-03,22.540000915527344,22.809999465942383,22.0,22.57999992370605,282024
2024-09-04,21.6200008392334,22.479999542236328,21.6200008392334,22.01000022888184,91885
2024-09-05,22.0,22.739999771118164,21.850000381469727,21.979999542236328,185383
2024-09-06,22.170000076293945,22.489999771118164,21.549999237060547,21.96999931335449,269622
2024-09-09,21.959999084472656,22.21999931335449,21.520000457763672,21.790000915527344,121701
2024-09-10,21.729999542236328,22.290000915527344,21.729999542236328,21.950000762939453,64646
2024-09-11,21.950000762939453,22.46999931335449,21.950000762939453,22.030000686645508,112487
2024-09-12,22.06999969482422,22.299999237060547,21.450000762939453,21.559999465942383,85942
2024-09-13,21.8799991607666,22.5,21.600000381469727,21.959999084472656,401079
2024-09-16,22.3799991607666,22.39999961853028,21.809999465942383,21.82999992370605,85258
2024-09-17,21.5,22.0,21.5,21.780000686645508,58868
2024-09-18,21.959999084472656,21.959999084472656,20.799999237060547,21.14999961853028,179999
2024-09-19,21.43000030517578,21.440000534057617,20.450000762939453,20.530000686645508,138484
2024-09-20,20.989999771118164,21.39999961853028,20.68000030517578,21.09000015258789,123072
2024-09-23,21.100000381469727,21.100000381469727,20.850000381469727,20.90999984741211,50349
2024-09-24,20.959999084472656,21.450000762939453,20.64999961853028,20.8700008392334,81450
2024-09-25,20.979999542236328,20.989999771118164,19.96999931335449,20.020000457763672,267600
2024-09-26,20.280000686645508,20.489999771118164,19.989999771118164,20.190000534057617,111644
2024-09-27,20.63999938964844,20.63999938964844,20.020000457763672,20.15999984741211,64691
2024-09-30,20.15999984741211,20.600000381469727,20.0,20.14999961853028,159350
2024-10-01,20.280000686645508,21.0,20.049999237060547,20.709999084472656,200887
2024-10-03,20.979999542236328,20.979999542236328,20.11000061035156,20.190000534057617,85454
2024-10-04,20.190000534057617,20.489999771118164,19.450000762939453,19.61000061035156,139100
2024-10-07,19.8700008392334,19.8700008392334,18.61000061035156,18.770000457763672,107194
2024-10-08,19.0,19.68000030517578,18.690000534057617,19.280000686645508,68949
2024-10-09,19.65999984741211,20.65999984741211,19.309999465942383,20.280000686645508,167954
2024-10-10,20.440000534057617,20.88999938964844,20.14999961853028,20.309999465942383,125314
2024-10-11,20.440000534057617,20.59000015258789,19.81999969482422,19.920000076293945,61127
2024-10-14,20.25,20.25,19.64999961853028,19.8799991607666,83934
2024-10-15,19.549999237060547,20.0,19.520000457763672,19.57999992370605,40402
2024-10-16,19.75,19.75,19.0,19.270000457763672,79476
2024-10-17,19.270000457763672,19.46999931335449,18.799999237060547,18.940000534057617,71043
2024-10-18,18.81999969482422,19.190000534057617,18.64999961853028,19.059999465942383,42771
2024-10-21,19.440000534057617,19.440000534057617,18.700000762939453,18.71999931335449,23218
2024-10-22,18.75,18.90999984741211,18.010000228881836,18.049999237060547,31415
2024-10-23,18.0,18.38999938964844,17.219999313354492,17.520000457763672,145645
2024-10-24,17.329999923706055,17.979999542236328,17.1200008392334,17.84000015258789,76989
2024-10-25,17.84000015258789,17.850000381469727,17.25,17.399999618530273,49865
2024-10-28,17.100000381469727,17.8700008392334,17.100000381469727,17.229999542236328,51233
2024-10-29,17.790000915527344,17.790000915527344,16.90999984741211,17.09000015258789,62044
2024-10-30,17.450000762939453,17.950000762939453,17.09000015258789,17.709999084472656,50401
2024-10-31,17.40999984741211,18.5,17.40999984741211,17.959999084472656,68500
2024-11-01,18.479999542236328,18.770000457763672,18.020000457763672,18.6200008392334,27538
2024-11-04,19.049999237060547,20.100000381469727,18.88999938964844,19.209999084472656,143263
2024-11-05,19.26000022888184,19.959999084472656,19.26000022888184,19.3799991607666,76329
2024-11-06,19.39999961853028,19.690000534057617,18.86000061035156,19.46999931335449,46019
2024-11-07,19.479999542236328,19.51000022888184,18.920000076293945,19.09000015258789,25913
2024-11-08,19.190000534057617,19.190000534057617,18.600000381469727,18.770000457763672,35145
2024-11-11,19.14999961853028,19.299999237060547,18.89999961853028,19.07999992370605,28894
2024-11-12,19.239999771118164,19.239999771118164,18.0,18.229999542236328,37599
2024-11-13,18.21999931335449,18.21999931335449,17.110000610351562,17.229999542236328,57046
2024-11-14,17.579999923706055,17.719999313354492,17.299999237060547,17.579999923706055,23935
2024-11-18,17.579999923706055,17.700000762939453,16.6200008392334,16.920000076293945,49551
2024-11-19,17.229999542236328,17.639999389648438,16.770000457763672,16.959999084472656,74298
2024-11-21,16.799999237060547,17.1200008392334,16.200000762939453,16.329999923706055,54297
2024-11-22,16.600000381469727,16.84000015258789,16.3700008392334,16.709999084472656,24507
2024-11-25,16.989999771118164,17.549999237060547,16.989999771118164,17.149999618530273,67404
2024-11-26,17.489999771118164,17.549999237060547,16.200000762939453,17.149999618530273,39957
2024-11-27,17.440000534057617,17.59000015258789,17.15999984741211,17.329999923706055,23814
2024-11-28,17.690000534057617,18.100000381469727,17.309999465942383,17.719999313354492,55293
2024-11-29,17.979999542236328,18.39999961853028,17.65999984741211,17.889999389648438,22201
2024-12-02,18.299999237060547,19.34000015258789,18.010000228881836,18.86000061035156,169219
2024-12-03,18.959999084472656,19.209999084472656,18.709999084472656,18.989999771118164,68582
2024-12-04,18.63999938964844,20.0,18.61000061035156,19.0,84265
2024-12-05,19.0,19.549999237060547,18.700000762939453,19.34000015258789,43020
2024-12-06,19.489999771118164,19.600000381469727,18.950000762939453,19.14999961853028,65135
2024-12-09,19.14999961853028,20.75,19.14999961853028,19.700000762939453,265881
2024-12-10,19.88999938964844,19.93000030517578,19.299999237060547,19.559999465942383,51141
2024-12-11,19.700000762939453,19.739999771118164,19.25,19.299999237060547,36732
2024-12-12,19.5,19.5,19.06999969482422,19.209999084472656,86996
2024-12-13,19.209999084472656,19.479999542236328,18.739999771118164,19.0,44201
2024-12-16,18.82999992370605,20.1299991607666,18.82999992370605,19.559999465942383,145246
2024-12-17,19.0,19.63999938964844,18.76000022888184,18.950000762939453,55572
2024-12-18,18.700000762939453,19.43000030517578,18.600000381469727,18.68000030517578,36704
2024-12-19,18.68000030517578,19.030000686645508,18.459999084472656,18.809999465942383,87725
2024-12-20,18.989999771118164,19.100000381469727,18.709999084472656,18.75,78285
2024-12-23,18.75,18.93000030517578,18.100000381469727,18.15999984741211,51379
2024-12-24,18.049999237060547,18.299999237060547,17.309999465942383,17.969999313354492,53752
2024-12-26,17.520000457763672,18.07999992370605,17.520000457763672,17.780000686645508,24032
2024-12-27,17.549999237060547,17.989999771118164,17.549999237060547,17.829999923706055,26303
2024-12-30,17.530000686645508,17.920000076293945,17.530000686645508,17.6299991607666,28077
2024-12-31,17.360000610351562,18.96999931335449,17.350000381469727,18.18000030517578,10838
2025-01-01,18.200000762939453,18.790000915527344,18.11000061035156,18.18000030517578,79880
2025-01-02,18.479999542236328,18.68000030517578,18.18000030517578,18.520000457763672,22543
2025-01-03,18.440000534057617,18.989999771118164,18.170000076293945,18.299999237060547,37626
2025-01-06,18.170000076293945,18.38999938964844,17.3799991607666,17.440000534057617,42507
2025-01-07,17.56999969482422,18.14999961853028,17.56999969482422,18.010000228881836,36407
2025-01-08,18.299999237060547,18.299999237060547,18.0,18.010000228881836,28787
2025-01-09,18.030000686645508,18.540000915527344,17.5,18.059999465942383,40184
2025-01-10,18.489999771118164,18.489999771118164,17.0,17.200000762939453,68615
2025-01-13,17.0,17.600000381469727,16.25,16.889999389648438,145736
2025-01-14,17.079999923706055,17.280000686645508,16.709999084472656,17.010000228881836,37281
2025-01-15,16.780000686645508,17.3799991607666,16.780000686645508,17.100000381469727,50716
2025-01-16,17.389999389648438,17.389999389648438,17.0,17.190000534057617,28612
2025-01-17,17.010000228881836,17.450000762939453,16.5,16.8799991607666,53823
2025-01-20,17.190000534057617,17.190000534057617,16.889999389648438,17.059999465942383,18396
2025-01-21,17.059999465942383,17.190000534057617,16.479999542236328,16.510000228881836,43094
2025-01-22,16.520000457763672,16.8700008392334,16.25,16.59000015258789,17317
2025-01-23,16.549999237060547,17.5,16.299999237060547,16.559999465942383,99971
2025-01-24,16.860000610351562,16.860000610351562,14.600000381469728,15.140000343322754,183985
2025-01-27,15.140000343322754,15.140000343322754,14.5,14.539999961853027,430577
2025-01-28,14.800000190734863,15.949999809265137,14.5,15.390000343322754,97490
2025-01-29,15.649999618530272,16.399999618530273,15.460000038146973,16.079999923706055,88820
2025-01-30,16.0,18.200000762939453,16.0,17.829999923706055,197686
2025-01-31,18.25,20.049999237060547,17.850000381469727,19.479999542236328,491499
2025-02-01,19.489999771118164,21.200000762939453,18.530000686645508,20.06999969482422,259985
2025-02-03,20.059999465942383,20.059999465942383,19.5,19.6200008392334,68335
2025-02-04,19.979999542236328,20.25,19.5,19.89999961853028,50915
2025-02-05,20.0,20.0,19.0,19.239999771118164,45610
2025-02-06,19.64999961853028,20.799999237060547,18.5,20.43000030517578,263486
2025-02-07,20.0,20.38999938964844,19.11000061035156,19.5,102317
2025-02-10,20.0,20.0,19.0,19.350000381469727,47454
2025-02-11,19.96999931335449,20.600000381469727,19.0,20.280000686645508,297837
2025-02-12,20.479999542236328,22.690000534057617,20.36000061035156,22.21999931335449,1727835
2025-02-13,22.18000030517578,23.5,21.200000762939453,22.61000061035156,603448
2025-02-14,23.39999961853028,23.39999961853028,21.920000076293945,22.43000030517578,244385
2025-02-17,22.950000762939453,23.25,22.0,22.520000457763672,221842
2025-02-18,23.489999771118164,23.489999771118164,22.0,22.950000762939453,308089
2025-02-19,23.290000915527344,27.0,23.01000022888184,25.26000022888184,874064
2025-02-20,25.5,29.0,25.06999969482422,27.1299991607666,1263696
2025-02-21,27.799999237060547,31.200000762939453,27.5,30.21999931335449,1149173
2025-02-24,32.0,36.2599983215332,31.299999237060547,36.2599983215332,5656998
2025-02-25,35.0,36.0,34.439998626708984,34.439998626708984,219078
2025-02-27,32.709999084472656,32.709999084472656,32.709999084472656,32.709999084472656,7447
2025-02-28,31.06999969482422,31.06999969482422,31.06999969482422,31.06999969482422,9825
2025-03-03,29.51000022888184,29.51000022888184,29.51000022888184,29.51000022888184,89287
2025-03-04,28.07999992370605,28.07999992370605,28.030000686645508,28.030000686645508,8686
2025-03-05,26.6200008392334,26.6200008392334,26.6200008392334,26.6200008392334,49996
2025-03-06,25.280000686645508,25.280000686645508,25.280000686645508,25.280000686645508,8457
2025-03-07,24.01000022888184,26.540000915527344,24.01000022888184,26.540000915527344,356098
2025-03-10,27.600000381469727,27.799999237060547,25.209999084472656,25.209999084472656,165006
2025-03-11,23.950000762939453,23.950000762939453,23.940000534057617,23.940000534057617,213297
2025-03-12,22.739999771118164,24.100000381469727,22.739999771118164,23.809999465942383,371268
2025-03-13,23.0,25.0,22.61000061035156,25.0,340195
2025-03-17,24.049999237060547,24.5,23.75,23.75,78720
2025-03-18,23.75,23.75,23.75,23.75,0
2025-03-19,25.450000762939453,25.459999084472656,24.26000022888184,25.459999084472656,63768
2025-03-20,26.63999938964844,26.729999542236328,26.5,26.729999542236328,20941
2025-03-21,27.700000762939453,28.059999465942383,27.049999237060547,28.059999465942383,98970
2025-03-24,29.39999961853028,29.459999084472656,28.5,29.459999084472656,15486
2025-03-25,30.93000030517578,30.93000030517578,30.93000030517578,30.93000030517578,44249
2025-03-26,31.540000915527344,31.540000915527344,30.309999465942383,31.540000915527344,119962
2025-03-27,32.16999816894531,32.16999816894531,32.16999816894531,32.16999816894531,30533
2025-03-28,32.810001373291016,32.810001373291016,32.810001373291016,32.810001373291016,28661
2025-04-01,33.459999084472656,33.459999084472656,33.459999084472656,33.459999084472656,16372
2025-04-02,34.119998931884766,34.119998931884766,34.119998931884766,34.119998931884766,30920
2025-04-03,34.79999923706055,34.79999923706055,34.79999923706055,34.79999923706055,22441
2025-04-04,35.4900016784668,35.4900016784668,35.4900016784668,35.4900016784668,37274
2025-04-07,36.18999862670898,36.18999862670898,36.18999862670898,36.18999862670898,155576
2025-04-08,36.90999984741211,36.90999984741211,36.90999984741211,36.90999984741211,36527
2025-04-09,37.63999938964844,37.63999938964844,37.63999938964844,37.63999938964844,46587
2025-04-11,38.38999938964844,38.38999938964844,38.38999938964844,38.38999938964844,30197
2025-04-15,39.150001525878906,39.150001525878906,39.150001525878906,39.150001525878906,31442
2025-04-16,39.93000030517578,39.93000030517578,39.93000030517578,39.93000030517578,23110
2025-04-17,40.720001220703125,40.720001220703125,40.720001220703125,40.720001220703125,21244
2025-04-21,39.900001525878906,39.900001525878906,39.900001525878906,39.900001525878906,281187
2025-04-22,39.09999847412109,39.09999847412109,39.09999847412109,39.09999847412109,272985
2025-04-23,38.310001373291016,38.310001373291016,38.310001373291016,38.310001373291016,29895
2025-04-24,37.540000915527344,37.560001373291016,37.540000915527344,37.540000915527344,523065
2025-04-25,36.77999877929688,36.77999877929688,36.77999877929688,36.77999877929688,62507
2025-04-28,36.040000915527344,36.77999877929688,36.040000915527344,36.040000915527344,261861
2025-04-29,35.310001373291016,35.310001373291016,35.310001373291016,35.310001373291016,49220
2025-04-30,34.599998474121094,34.599998474121094,34.599998474121094,34.599998474121094,23775
2025-05-02,33.900001525878906,33.900001525878906,33.900001525878906,33.900001525878906,8873
2025-05-05,32.5,33.88999938964844,32.20000076293945,32.20000076293945,864614
2025-05-06,30.59000015258789,30.59000015258789,30.59000015258789,30.59000015258789,124674
2025-05-07,29.059999465942383,32.11000061035156,29.059999465942383,30.82999992370605,364545
2025-05-08,32.369998931884766,32.369998931884766,31.88999938964844,32.36000061035156,199465
2025-05-09,31.0,33.970001220703125,30.739999771118164,33.95000076293945,161434
2025-05-12,35.63999938964844,35.63999938964844,35.380001068115234,35.63999938964844,135622
2025-05-13,37.41999816894531,37.41999816894531,37.41999816894531,37.41999816894531,87196
2025-05-14,39.290000915527344,39.290000915527344,35.599998474121094,37.7400016784668,1085952
2025-05-15,36.97999954223633,36.97999954223633,36.97999954223633,36.97999954223633,76078
2025-05-16,37.5,37.5,37.04999923706055,37.5,194376
2025-05-19,37.5,37.5,37.09999847412109,37.5,59507
2025-05-20,38.25,38.25,37.83000183105469,38.25,50707
2025-05-21,39.0099983215332,39.0099983215332,39.0099983215332,39.0099983215332,11730
2025-05-22,39.790000915527344,39.790000915527344,39.790000915527344,39.790000915527344,21454
2025-05-23,40.58000183105469,40.58000183105469,40.58000183105469,40.58000183105469,10670
2025-05-26,41.38999938964844,41.38999938964844,41.38999938964844,41.38999938964844,8638
2025-05-27,42.209999084472656,42.209999084472656,42.209999084472656,42.209999084472656,12604
2025-05-28,43.04999923706055,43.04999923706055,43.04999923706055,43.04999923706055,17800
2025-05-29,43.90999984741211,43.90999984741211,43.90999984741211,43.90999984741211,8293
2025-05-30,43.02999877929688,44.77999877929688,43.02999877929688,43.02999877929688,860078
2025-06-02,42.15999984741211,42.15999984741211,42.15999984741211,42.15999984741211,95544
2025-06-03,41.310001373291016,41.310001373291016,41.310001373291016,41.310001373291016,25827
2025-06-04,40.47999954223633,40.47999954223633,40.47999954223633,40.47999954223633,37980
2025-06-05,39.66999816894531,39.66999816894531,39.66999816894531,39.66999816894531,47978
2025-06-06,38.869998931884766,38.869998931884766,38.869998931884766,38.869998931884766,21615
2025-06-09,39.63999938964844,39.63999938964844,38.09000015258789,39.63999938964844,212381
2025-06-10,38.84000015258789,38.84000015258789,38.84000015258789,38.84000015258789,59702
2025-06-11,38.060001373291016,38.060001373291016,38.060001373291016,38.060001373291016,41232
2025-06-12,37.290000915527344,37.290000915527344,37.290000915527344,37.290000915527344,170845
2025-06-13,36.540000915527344,36.540000915527344,36.540000915527344,36.540000915527344,38358
2025-06-16,35.79999923706055,35.79999923706055,35.79999923706055,35.79999923706055,7095
2025-06-17,35.08000183105469,35.08000183105469,35.08000183105469,35.08000183105469,46973
2025-06-18,34.369998931884766,35.779998779296875,34.369998931884766,34.369998931884766,675387
2025-06-19,33.68000030517578,33.68000030517578,33.68000030517578,33.68000030517578,126661
2025-06-20,33.0,33.0,33.0,33.0,440710
2025-06-23,31.350000381469727,31.350000381469727,31.350000381469727,31.350000381469727,89928
2025-06-24,29.780000686645508,32.90999984741211,29.780000686645508,31.709999084472656,820012
2025-06-25,30.600000381469727,32.400001525878906,30.1200008392334,31.82999992370605,277473
2025-06-26,32.0,32.900001525878906,31.14999961853028,31.32999992370605,46820
2025-06-27,30.700000762939453,32.88999938964844,30.700000762939453,32.880001068115234,96552
2025-06-30,33.400001525878906,34.52000045776367,33.400001525878906,34.52000045776367,158910
2025-07-01,36.2400016784668,36.2400016784668,35.0099983215332,35.150001525878906,265582
2025-07-02,36.0,36.0,33.38999938964844,33.75,285130
2025-07-03,33.400001525878906,34.25,32.06999969482422,32.13999938964844,140776
2025-07-04,31.850000381469727,32.5,31.049999237060547,32.06999969482422,63461
2025-07-07,31.39999961853028,32.689998626708984,31.0,32.11000061035156,32457
2025-07-08,31.989999771118164,32.70000076293945,30.64999961853028,32.0,22583
2025-07-09,32.0,32.900001525878906,31.100000381469727,31.420000076293945,45210
2025-07-10,31.51000022888184,32.45000076293945,31.0,31.21999931335449,71143
2025-07-11,32.20000076293945,32.20000076293945,31.0,31.75,35786
2025-07-14,32.2400016784668,32.2400016784668,31.06999969482422,31.56999969482422,16558
2025-07-15,31.56999969482422,32.099998474121094,30.959999084472656,31.93000030517578,48930
2025-07-16,32.0,33.52000045776367,32.0,33.52000045776367,29399
2025-07-17,35.099998474121094,35.189998626708984,35.0,35.189998626708984,269257
2025-07-18,34.220001220703125,36.93999862670898,34.099998474121094,36.93999862670898,145115
2025-07-21,35.5099983215332,38.0,35.09000015258789,35.91999816894531,556017
2025-07-22,35.20000076293945,35.20000076293945,35.20000076293945,35.20000076293945,53617
2025-07-23,34.4900016784668,34.4900016784668,34.4900016784668,34.4900016784668,3055
2025-07-24,33.79999923706055,33.79999923706055,33.79999923706055,33.79999923706055,927
2025-07-25,33.119998931884766,33.119998931884766,33.119998931884766,33.119998931884766,25133
2025-07-28,32.45000076293945,32.45000076293945,32.45000076293945,32.45000076293945,17643
2025-07-29,33.09000015258789,33.09000015258789,32.45000076293945,33.09000015258789,95494
2025-07-30,33.04999923706055,33.689998626708984,33.0,33.04999923706055,14824
2025-07-31,33.45000076293945,33.45000076293945,33.0,33.45000076293945,17210
2025-08-01,33.599998474121094,33.599998474121094,33.599998474121094,33.599998474121094,24953
2025-08-04,34.27000045776367,34.27000045776367,33.0,34.27000045776367,14652
2025-08-05,34.880001068115234,34.91999816894531,34.880001068115234,34.880001068115234,13276
2025-08-06,34.18000030517578,34.880001068115234,34.18000030517578,34.18000030517578,1591
2025-08-07,33.4900016784668,33.9900016784668,33.4900016784668,33.4900016784668,118
2025-08-08,33.0,33.4900016784668,32.81999969482422,33.0,32051
2025-08-11,33.0,33.0,32.40999984741211,33.0,4094
2025-08-12,32.34000015258789,33.0,32.34000015258789,32.34000015258789,4823
2025-08-13,31.700000762939453,32.5,31.700000762939453,31.700000762939453,24098
2025-08-14,31.059999465942383,31.11000061035156,31.059999465942383,31.059999465942383,3650
2025-08-18,30.43000030517578,31.209999084472656,30.43000030517578,30.43000030517578,14696
2025-08-19,31.030000686645508,31.030000686645508,30.61000061035156,31.030000686645508,53106
2025-08-20,31.600000381469727,31.64999961853028,31.489999771118164,31.600000381469727,16197
2025-08-21,32.22999954223633,32.22999954223633,32.0,32.22999954223633,24766
2025-08-22,32.869998931884766,32.869998931884766,32.869998931884766,32.869998931884766,2601
2025-08-25,33.0,33.52000045776367,32.97999954223633,33.0,46052
2025-08-26,32.34000015258789,32.34000015258789,32.34000015258789,32.34000015258789,47021
2025-08-28,31.690000534057617,31.75,31.690000534057617,31.690000534057617,13156
2025-08-29,31.100000381469727,31.600000381469727,31.049999237060547,31.100000381469727,41353
2025-09-01,31.40999984741211,32.20000076293945,29.6299991607666,31.15999984741211,49878
2025-09-02,30.14999961853028,31.520000457763672,30.0,30.170000076293945,27743
2025-09-03,30.0,30.68000030517578,29.14999961853028,30.18000030517578,34576
2025-09-04,29.950000762939453,30.89999961853028,29.200000762939453,29.530000686645508,30932
2025-09-05,29.56999969482422,30.0,29.0,29.61000061035156,16345
2025-09-08,29.61000061035156,31.06999969482422,29.5,30.270000457763672,8810
2025-09-09,29.799999237060547,30.8700008392334,29.26000022888184,30.0,47216
2025-09-10,29.51000022888184,31.0,29.39999961853028,30.5,23235
2025-09-11,29.89999961853028,31.0,29.5,30.600000381469727,20208
2025-09-12,30.26000022888184,31.40999984741211,30.209999084472656,31.030000686645508,16174
2025-09-15,32.5,37.22999954223633,32.5,33.970001220703125,898722
2025-09-16,34.0,35.9900016784668,33.599998474121094,34.869998931884766,149365
2025-09-17,35.0,35.0,32.20000076293945,32.849998474121094,112132
2025-09-18,32.79999923706055,36.18000030517578,32.2599983215332,34.5,132921
2025-09-19,34.4900016784668,35.95000076293945,33.0,34.790000915527344,65706
2025-09-22,35.45000076293945,35.45000076293945,33.0099983215332,33.130001068115234,36939
2025-09-23,33.0,34.599998474121094,32.4900016784668,32.86000061035156,572020
2025-09-24,33.5,33.900001525878906,32.0,32.20000076293945,57140
2025-09-25,33.0099983215332,33.060001373291016,31.299999237060547,32.029998779296875,36075
2025-09-26,32.029998779296875,33.029998779296875,31.200000762939453,31.3799991607666,23145
2025-09-29,30.549999237060547,33.0,30.549999237060547,30.93000030517578,57589
2025-09-30,30.549999237060547,31.950000762939453,30.549999237060547,30.959999084472656,28094
2025-10-01,30.100000381469727,31.09000015258789,29.200000762939453,30.549999237060547,38738
2025-10-03,29.5,33.5,29.5,33.099998474121094,85307
2025-10-06,32.5099983215332,33.790000915527344,32.5,32.52000045776367,37376
2025-10-07,32.099998474121094,33.0,32.0099983215332,32.2599983215332,35119
2025-10-08,32.97999954223633,33.0,31.0,31.56999969482422,46363
2025-10-09,31.520000457763672,33.43000030517578,31.01000022888184,31.920000076293945,29561
2025-10-10,31.200000762939453,32.599998474121094,31.200000762939453,31.489999771118164,14397
2025-10-13,31.01000022888184,31.51000022888184,30.01000022888184,30.18000030517578,48814
2025-10-14,30.8700008392334,31.0,29.850000381469727,30.21999931335449,71252
2025-10-15,29.75,30.90999984741211,29.6299991607666,29.90999984741211,40992
2025-10-16,30.049999237060547,33.02000045776367,30.049999237060547,30.940000534057617,141910
2025-10-17,30.530000686645508,30.89999961853028,29.39999961853028,29.709999084472656,75588
2025-10-20,29.11000061035156,30.5,29.11000061035156,29.89999961853028,25277
2025-10-21,30.200000762939453,31.0,29.0,29.81999969482422,16281
2025-10-23,29.420000076293945,30.0,29.420000076293945,29.88999938964844,11742
2025-10-24,29.6299991607666,30.0,29.5,29.940000534057617,24142
2025-10-27,29.559999465942383,29.989999771118164,29.020000457763672,29.790000915527344,37934
2025-10-28,29.299999237060547,29.920000076293945,29.270000457763672,29.799999237060547,31096
2025-10-29,29.799999237060547,30.170000076293945,29.43000030517578,29.549999237060547,18764
2025-10-30,29.190000534057617,30.46999931335449,29.190000534057617,29.790000915527344,31172
2025-10-31,29.32999992370605,30.0,29.0,29.13999938964844,19506
2025-11-03,29.200000762939453,29.89999961853028,29.190000534057617,29.299999237060547,11459
2025-11-04,29.38999938964844,29.38999938964844,27.350000381469727,28.26000022888184,25781
2025-11-06,28.299999237060547,28.89999961853028,28.030000686645508,28.5,27537
2025-11-07,27.5,28.799999237060547,27.049999237060547,28.15999984741211,36353
2025-11-10,27.170000076293945,30.690000534057617,27.170000076293945,29.21999931335449,28887
2025-11-11,29.36000061035156,29.3700008392334,28.39999961853028,28.940000534057617,12152
2025-11-12,28.93000030517578,29.09000015258789,28.40999984741211,28.8700008392334,7515
2025-11-13,28.25,29.489999771118164,28.0,29.020000457763672,111427
2025-11-14,29.489999771118164,30.0,28.600000381469727,29.290000915527344,22137
2025-11-17,30.0,30.190000534057617,29.5,29.89999961853028,25781
2025-11-18,29.700000762939453,30.0,29.190000534057617,29.729999542236328,38362
2025-11-19,30.5,32.0,29.25,29.8700008392334,123417
2025-11-20,30.5,30.5,29.15999984741211,29.729999542236328,84265
2025-11-21,29.170000076293945,30.0,28.299999237060547,29.1299991607666,96140
2025-11-24,28.299999237060547,29.190000534057617,28.0,28.239999771118164,32501
2025-11-25,27.32999992370605,29.89999961853028,27.32999992370605,28.790000915527344,168119
2025-11-26,30.850000381469727,30.850000381469727,28.200000762939453,28.8799991607666,110489
2025-11-27,29.940000534057617,30.39999961853028,28.309999465942383,29.799999237060547,66309
2025-11-28,30.100000381469727,30.65999984741211,29.299999237060547,30.209999084472656,15229
2025-12-01,29.89999961853028,31.479999542236328,29.190000534057617,29.75,22785
2025-12-02,29.020000457763672,30.8700008392334,29.020000457763672,29.690000534057617,41841
2025-12-03,30.59000015258789,30.600000381469727,29.26000022888184,30.09000015258789,36203
2025-12-04,30.920000076293945,30.920000076293945,29.950000762939453,29.989999771118164,34798
2025-12-05,30.790000915527344,30.790000915527344,29.549999237060547,30.13999938964844,27776
2025-12-08,30.01000022888184,30.32999992370605,29.26000022888184,29.989999771118164,34446
2025-12-09,29.799999237060547,30.84000015258789,29.799999237060547,30.280000686645508,118916
2025-12-10,30.89999961853028,31.520000457763672,30.209999084472656,31.020000457763672,36752
2025-12-11,31.290000915527344,32.0099983215332,30.799999237060547,31.06999969482422,26789
2025-12-12,31.90999984741211,31.979999542236328,30.950000762939453,31.170000076293945,38074
2025-12-15,30.600000381469727,31.989999771118164,30.0,31.38999938964844,97094
2025-12-16,30.65999984741211,31.63999938964844,30.65999984741211,31.01000022888184,23626
2025-12-17,31.26000022888184,31.46999931335449,30.549999237060547,30.56999969482422,23093
2025-12-18,31.75,31.75,30.190000534057617,30.200000762939453,26185
2025-12-19,31.059999465942383,31.059999465942383,30.5,30.600000381469727,15166
2025-12-22,31.07999992370605,31.479999542236328,30.600000381469727,31.18000030517578,38224
2025-12-23,31.700000762939453,31.700000762939453,30.64999961853028,30.86000061035156,26809
2025-12-24,31.0,31.8799991607666,30.89999961853028,30.989999771118164,25441
2025-12-26,31.61000061035156,32.29999923706055,30.89999961853028,30.940000534057617,66861
2025-12-29,31.559999465942383,33.88999938964844,31.5,31.8700008392334,80562
2025-12-30,31.39999961853028,32.459999084472656,30.88999938964844,31.65999984741211,14838
2025-12-31,33.20000076293945,35.0,31.290000915527344,32.720001220703125,113349
2026-01-01,32.720001220703125,33.09000015258789,31.5,31.700000762939453,34302
2026-01-02,33.0,33.0,31.5,31.809999465942383,18253
2026-01-05,31.700000762939453,33.29999923706055,31.39999961853028,31.61000061035156,21020
2026-01-06,33.25,33.25,31.100000381469727,31.309999465942383,7569
2026-01-07,31.299999237060547,31.979999542236328,30.89999961853028,30.90999984741211,17731
2026-01-08,32.0099983215332,32.0099983215332,30.799999237060547,30.799999237060547,19855
2026-01-09,32.31999969482422,32.31999969482422,30.89999961853028,30.90999984741211,22220
2026-01-12,30.90999984741211,31.5,29.200000762939453,30.5,15151
2026-01-13,30.6299991607666,31.8700008392334,30.5,30.5,21838
2026-01-14,32.97999954223633,32.97999954223633,30.46999931335449,30.540000915527344,33342
2026-01-16,31.14999961853028,31.200000762939453,29.25,30.6299991607666,8907
2026-01-19,30.690000534057617,35.5,30.18000030517578,34.18000030517578,299482
2026-01-20,34.290000915527344,34.9900016784668,30.299999237060547,30.520000457763672,99526
2026-01-21,29.200000762939453,31.799999237060547,29.200000762939453,30.520000457763672,38103
2026-01-22,33.5,33.5,30.51000022888184,30.86000061035156,12101
2026-01-23,30.86000061035156,32.0,30.5,30.559999465942383,23844
2026-01-27,30.559999465942383,31.540000915527344,30.5,30.670000076293945,37275
2026-01-28,30.51000022888184,31.5,30.51000022888184,30.76000022888184,18822
2026-01-29,29.39999961853028,32.04999923706055,29.39999961853028,31.34000015258789,84754
2026-01-30,31.89999961853028,31.89999961853028,30.0,30.59000015258789,107170
2026-02-02,29.450000762939453,31.57999992370605,29.450000762939453,30.200000762939453,46316
2026-02-03,29.25,31.489999771118164,29.25,30.5,27970
2026-02-04,31.26000022888184,31.440000534057617,30.25,30.700000762939453,106181
2026-02-05,30.14999961853028,31.13999938964844,30.100000381469727,30.5,46235
2026-02-06,30.489999771118164,31.0,29.5,30.540000915527344,20538
2026-02-09,30.540000915527344,31.600000381469727,29.780000686645508,31.26000022888184,19365
2026-02-10,31.51000022888184,31.51000022888184,30.709999084472656,31.020000457763672,18312
2026-02-11,30.549999237060547,31.299999237060547,30.5,30.6299991607666,45923
2026-02-12,31.479999542236328,31.479999542236328,30.40999984741211,31.01000022888184,25587
2026-02-13,31.38999938964844,31.38999938964844,30.15999984741211,30.6299991607666,27803
2026-02-16,31.5,31.5,29.64999961853028,31.1200008392334,64012
2026-02-17,31.51000022888184,31.989999771118164,30.799999237060547,31.040000915527344,31933
2026-02-18,30.26000022888184,31.350000381469727,30.26000022888184,31.030000686645508,23347
2026-02-19,30.299999237060547,31.239999771118164,30.299999237060547,30.57999992370605,30880
2026-02-20,30.700000762939453,31.280000686645508,30.61000061035156,31.06999969482422,318708
2026-02-23,31.190000534057617,32.47999954223633,30.700000762939453,31.780000686645508,283684
2026-02-24,32.45000076293945,34.900001525878906,31.5,34.5,300634
2026-02-25,36.70000076293945,40.380001068115234,35.5,37.15999984741211,747491
2026-02-26,37.5,39.0,35.20000076293945,38.47999954223633,193002
2026-02-27,38.5,40.34999847412109,34.04999923706055,35.540000915527344,270807
2026-03-02,35.5,35.5,32.25,32.95000076293945,129760
2026-03-04,32.099998474121094,35.349998474121094,32.099998474121094,33.869998931884766,57382
2026-03-05,34.790000915527344,35.31999969482422,32.31999969482422,34.31999969482422,51213
2026-03-06,35.34000015258789,38.47999954223633,34.97999954223633,35.880001068115234,227477
2026-03-09,35.869998931884766,35.869998931884766,33.75,34.560001373291016,38380
2026-03-10,36.79999923706055,41.470001220703125,35.029998779296875,38.84999847412109,418410
2026-03-11,38.84999847412109,42.0,36.7599983215332,39.40999984741211,428693
2026-03-12,39.79999923706055,39.79999923706055,35.099998474121094,36.18000030517578,504491
2026-03-13,36.18000030517578,39.0,35.599998474121094,36.7599983215332,130190
2026-03-16,35.720001220703125,36.52999877929688,34.20000076293945,35.22999954223633,207771
2026-03-17,35.2599983215332,36.09999847412109,34.11000061035156,34.33000183105469,85843
2026-03-18,34.84000015258789,35.0,34.0,34.2599983215332,59459
2026-03-19,33.900001525878906,34.77000045776367,33.5,33.56999969482422,83212
2026-03-20,33.310001373291016,34.0,32.90999984741211,32.97999954223633,61193
2026-03-23,32.900001525878906,33.900001525878906,29.100000381469727,30.01000022888184,347825
2026-03-24,29.799999237060547,31.540000915527344,29.799999237060547,31.190000534057617,115420
2026-03-25,30.799999237060547,31.950000762939453,30.799999237060547,31.020000457763672,66919
2026-03-27,31.020000457763672,31.780000686645508,30.39999961853028,30.459999084472656,76320
2026-03-30,30.89999961853028,32.0,28.559999465942383,29.75,97814
2026-04-01,30.25,31.790000915527344,30.0,30.229999542236328,99485
2026-04-02,30.239999771118164,30.51000022888184,29.799999237060547,30.15999984741211,56852
2026-04-06,30.0,30.700000762939453,30.0,30.32999992370605,47909
2026-04-07,30.32999992370605,30.5,30.0,30.25,28681
2026-04-08,31.200000762939453,31.489999771118164,30.299999237060547,30.39999961853028,101867
2026-04-09,30.059999465942383,30.93000030517578,30.059999465942383,30.71999931335449,16407
2026-04-10,31.40999984741211,33.849998474121094,30.56999969482422,33.4900016784668,204306
2026-04-13,33.0099983215332,34.83000183105469,32.58000183105469,34.040000915527344,69462
2026-04-15,35.04999923706055,35.849998474121094,34.060001373291016,35.040000915527344,65903
2026-04-16,35.939998626708984,35.939998626708984,34.29999923706055,35.060001373291016,35054
2026-04-17,34.400001525878906,36.45000076293945,34.400001525878906,36.04999923706055,82085
2026-04-20,34.400001525878906,35.9900016784668,33.20000076293945,33.38999938964844,65288
2026-04-21,33.0,34.18000030517578,33.0,33.0099983215332,16328
2026-04-22,33.0099983215332,34.4900016784668,33.0,33.470001220703125,38074
2026-04-23,33.68000030517578,33.779998779296875,32.599998474121094,32.790000915527344,27930
2026-04-24,32.11000061035156,33.540000915527344,32.11000061035156,32.599998474121094,11285
2026-04-27,32.599998474121094,32.959999084472656,31.200000762939453,31.88999938964844,30552
2026-04-28,32.09000015258789,32.150001525878906,31.5,31.530000686645508,14862
2026-04-29,31.520000457763672,33.70000076293945,31.520000457763672,32.119998931884766,25471
2026-04-30,31.309999465942383,32.939998626708984,31.309999465942383,32.31999969482422,21140
2026-05-04,32.34000015258789,33.16999816894531,31.56999969482422,32.04999923706055,19490
2026-05-05,32.06999969482422,34.400001525878906,31.89999961853028,32.400001525878906,100401
2026-05-06,32.400001525878906,32.959999084472656,31.89999961853028,32.11000061035156,23224
2026-05-07,32.0,32.68000030517578,31.89999961853028,32.22999954223633,17411
2026-05-08,32.0,32.400001525878906,31.350000381469727,32.099998474121094,63901
2026-05-11,31.51000022888184,32.5,31.51000022888184,31.979999542236328,9654
2026-05-12,31.989999771118164,33.0,30.01000022888184,30.6299991607666,38235
2026-05-13,30.31999969482422,31.200000762939453,30.200000762939453,30.420000076293945,31845
2026-05-14,30.07999992370605,31.46999931335449,30.07999992370605,30.920000076293945,13865
2026-05-15,30.770000457763672,31.25,28.100000381469727,29.1200008392334,102209
2026-05-18,29.89999961853028,31.200000762939453,28.299999237060547,30.280000686645508,60596
2026-05-19,30.25,31.290000915527344,29.6200008392334,29.799999237060547,19237
2026-05-20,30.0,30.200000762939453,29.600000381469727,29.709999084472656,11382
2026-05-21,30.0,30.39999961853028,28.989999771118164,29.3700008392334,28687
2026-05-22,29.0,29.729999542236328,28.5,28.979999542236328,27838
2026-05-25,29.290000915527344,29.989999771118164,28.100000381469727,28.809999465942383,25382
2026-05-26,28.809999465942383,29.350000381469727,28.38999938964844,28.989999771118164,14224
2026-05-27,28.989999771118164,31.34000015258789,28.989999771118164,29.690000534057617,47255
2026-05-28,29.690000534057617,29.690000534057617,29.690000534057617,29.690000534057617,0
2026-05-29,29.82999992370605,30.520000457763672,29.030000686645508,29.68000030517578,23793
2026-06-01,29.68000030517578,30.38999938964844,29.200000762939453,29.209999084472656,10996
2026-06-02,29.75,29.979999542236328,29.39999961853028,29.489999771118164,16875
2026-06-03,29.549999237060547,29.799999237060547,28.96999931335449,29.049999237060547,28810
2026-06-04,29.0,29.940000534057617,28.799999237060547,29.31999969482422,15772
2026-06-05,29.01000022888184,30.25,29.01000022888184,29.559999465942383,15430
2026-06-08,29.65999984741211,30.39999961853028,28.200000762939453,29.739999771118164,18217
2026-06-09,28.850000381469727,29.989999771118164,28.850000381469727,29.030000686645508,13304
2026-06-10,28.5,30.100000381469727,28.5,29.540000915527344,19011
2026-06-11,29.5,30.229999542236328,28.600000381469727,28.989999771118164,19459
2026-06-12,28.88999938964844,29.799999237060547,28.100000381469727,29.14999961853028,42389
2026-06-15,29.700000762939453,30.170000076293945,29.25,29.809999465942383,4019
2026-06-16,30.200000762939453,30.200000762939453,29.209999084472656,29.6200008392334,5748
2026-06-17,29.5,29.989999771118164,29.350000381469727,29.81999969482422,9675
2026-06-18,30.0,30.459999084472656,29.309999465942383,29.8799991607666,22895
2026-06-19,29.8799991607666,30.190000534057617,28.65999984741211,29.270000457763672,42976
2026-06-22,29.270000457763672,29.75,29.0,29.100000381469727,19371
2026-06-23,29.350000381469727,29.88999938964844,29.049999237060547,29.5,10447
2026-06-24,29.57999992370605,29.790000915527344,28.5,29.200000762939453,16918
2026-06-25,29.299999237060547,29.82999992370605,28.39999961853028,29.059999465942383,11411
2026-06-26,29.059999465942383,29.059999465942383,29.059999465942383,29.059999465942383,0
2026-06-29,28.5,29.799999237060547,28.5,28.71999931335449,6733
2026-06-30,29.09000015258789,29.5,28.89999961853028,29.14999961853028,11077
2026-07-01,29.799999237060547,29.799999237060547,28.959999084472656,29.020000457763672,7662
2026-07-02,29.350000381469727,30.190000534057617,27.89999961853028,28.670000076293945,29664
2026-07-03,28.600000381469727,29.26000022888184,28.549999237060547,28.979999542236328,14186
2026-07-06,28.600000381469727,29.450000762939453,28.549999237060547,28.89999961853028,7716
2026-07-07,28.76000022888184,29.18000030517578,28.6200008392334,28.71999931335449,4431
2026-07-08,28.5,28.989999771118164,28.0,28.51000022888184,10697
2026-07-09,28.71999931335449,29.850000381469727,28.39999961853028,29.049999237060547,29704
2026-07-10,29.100000381469727,29.8700008392334,28.71999931335449,29.209999084472656,2203
2026-07-13,29.190000534057617,29.959999084472656,28.700000762939453,29.1200008392334,10860
2026-07-14,29.1200008392334,29.799999237060547,28.51000022888184,29.229999542236328,3986
2026-07-15,29.229999542236328,29.89999961853028,28.31999969482422,28.950000762939453,32039
2026-07-16,29.299999237060547,29.89999961853028,28.5,28.61000061035156,18070
2026-07-17,28.61000061035156,29.36000061035156,28.39999961853028,28.84000015258789,3780
2026-07-20,28.84000015258789,28.989999771118164,28.40999984741211,28.850000381469727,5477
2026-07-21,28.5,29.25,28.5,29.049999237060547,10602
2026-07-22,29.040000915527344,29.18000030517578,27.1200008392334,27.93000030517578,39441
2026-07-23,28.059999465942383,29.940000534057617,28.049999237060547,28.479999542236328,73691
2026-07-24,28.479999542236328,28.96999931335449,27.690000534057617,28.56999969482422,23096
2026-07-27,28.739999771118164,29.100000381469727,28.100000381469727,28.520000457763672,12069
2026-07-28,28.530000686645508,29.39999961853028,28.520000457763672,28.770000457763672,8191
2026-07-29,28.51000022888184,29.479999542236328,28.5,28.68000030517578,8219
2026-07-30,28.5,29.31999969482422,28.350000381469727,28.81999969482422,7616
2026-07-31,28.5,28.709999084472656,28.020000457763672,28.38999938964844,24068
2026-08-03,28.38999938964844,31.989999771118164,28.38999938964844,30.850000381469727,96270
2026-08-04,30.5,34.20000076293945,29.299999237060547,33.369998931884766,379957
2026-08-05,33.529998779296875,34.47999954223633,32.70000076293945,33.45000076293945,212385
2026-08-06,33.5,34.0,31.51000022888184,33.52000045776367,77454
2026-08-07,33.68000030517578,33.68000030517578,32.5099983215332,33.08000183105469,11397
2026-08-10,32.349998474121094,35.0,32.25,33.7599983215332,109113
2026-08-11,34.0,34.0,32.90999984741211,33.36000061035156,51060
2026-08-12,33.36000061035156,34.5,33.11000061035156,33.470001220703125,19116
2026-08-13,32.83000183105469,34.099998474121094,31.510000228881836,31.8799991607666,40554
2026-08-14,31.5,33.29999923706055,30.899999618530273,31.6200008392334,11064
2026-08-17,31.0,33.439998626708984,31.0,32.779998779296875,23649
2026-08-18,32.869998931884766,33.900001525878906,31.950000762939453,33.540000915527344,22579
2026-08-19,32.650001525878906,33.5,31.600000381469727,32.400001525878906,6278
2026-08-20,32.5,32.95000076293945,30.700000762939453,31.65999984741211,17981
2026-08-21,32.88999938964844,32.88999938964844,31.21999931335449,31.790000915527344,5205
2026-08-24,33.20000076293945,33.20000076293945,31.34000015258789,31.82999992370605,9935
2026-08-25,31.190000534057617,31.88999938964844,30.25,31.790000915527344,7527
2026-08-26,31.030000686645508,32.189998626708984,31.030000686645508,31.809999465942383,19414
2026-08-27,32.0,33.4900016784668,31.75,32.77000045776367,32254
2026-08-28,32.95000076293945,33.0,31.5,31.799999237060547,11248
2026-08-31,30.56999969482422,32.349998474121094,30.56999969482422,31.31999969482422,10106
2026-09-01,30.799999237060547,32.15999984741211,30.76000022888184,31.489999771118164,19126
2026-09-02,31.799999237060547,31.799999237060547,30.81999969482422,31.200000762939453,6736
2026-09-03,31.88999938964844,32.79999923706055,30.5,32.349998474121094,39050
2026-09-04,32.959999084472656,32.959999084472656,31.65999984741211,31.75,4990
2026-09-07,31.43000030517578,32.95000076293945,31.14999961853028,32.63999938964844,35616
2026-09-08,32.88999938964844,34.29999923706055,32.65999984741211,33.7400016784668,151147
2026-09-09,33.900001525878906,34.5,32.65999984741211,32.68000030517578,9812
