Date,Open,High,Low,Close,Volume
2025-09-08,29.610000610351562,31.06999969482422,29.5,30.270000457763672,8810
2025-09-09,29.799999237060547,30.8700008392334,29.260000228881836,30.0,47216
2025-09-10,29.510000228881836,31.0,29.399999618530273,30.5,23235
2025-09-11,29.899999618530273,31.0,29.5,30.600000381469727,20208
2025-09-12,30.260000228881836,31.40999984741211,30.209999084472656,31.030000686645508,16174
2025-09-15,32.5,37.22999954223633,32.5,33.970001220703125,898722
2025-09-16,34.0,35.9900016784668,33.599998474121094,34.869998931884766,149365
2025-09-17,35.0,35.0,32.20000076293945,32.849998474121094,112132
2025-09-18,32.79999923706055,36.18000030517578,32.2599983215332,34.5,132921
2025-09-19,34.4900016784668,35.95000076293945,33.0,34.790000915527344,65706
2025-09-22,35.45000076293945,35.45000076293945,33.0099983215332,33.130001068115234,36939
2025-09-23,33.0,34.599998474121094,32.4900016784668,32.86000061035156,572020
2025-09-24,33.5,33.900001525878906,32.0,32.20000076293945,57140
2025-09-25,33.0099983215332,33.060001373291016,31.299999237060547,32.029998779296875,36075
2025-09-26,32.029998779296875,33.029998779296875,31.200000762939453,31.3799991607666,23145
2025-09-29,30.549999237060547,33.0,30.549999237060547,30.93000030517578,57589
2025-09-30,30.549999237060547,31.950000762939453,30.549999237060547,30.959999084472656,28094
2025-10-01,30.100000381469727,31.09000015258789,29.200000762939453,30.549999237060547,38738
2025-10-03,29.5,33.5,29.5,33.099998474121094,85307
2025-10-06,32.5099983215332,33.790000915527344,32.5,32.52000045776367,37376
2025-10-07,32.099998474121094,33.0,32.0099983215332,32.2599983215332,35119
2025-10-08,32.97999954223633,33.0,31.0,31.56999969482422,46363
2025-10-09,31.520000457763672,33.43000030517578,31.010000228881836,31.920000076293945,29561
2025-10-10,31.200000762939453,32.599998474121094,31.200000762939453,31.489999771118164,14397
2025-10-13,31.010000228881836,31.510000228881836,30.010000228881836,30.18000030517578,48814
2025-10-14,30.8700008392334,31.0,29.850000381469727,30.219999313354492,71252
2025-10-15,29.75,30.90999984741211,29.6299991607666,29.90999984741211,40992
2025-10-16,30.049999237060547,33.02000045776367,30.049999237060547,30.940000534057617,141910
2025-10-17,30.530000686645508,30.899999618530273,29.399999618530273,29.709999084472656,75588
2025-10-20,29.110000610351562,30.5,29.110000610351562,29.899999618530273,25277
2025-10-21,30.200000762939453,31.0,29.0,29.81999969482422,16281
2025-10-23,29.420000076293945,30.0,29.420000076293945,29.889999389648438,11742
2025-10-24,29.6299991607666,30.0,29.5,29.940000534057617,24142
2025-10-27,29.559999465942383,29.989999771118164,29.020000457763672,29.790000915527344,37934
2025-10-28,29.299999237060547,29.920000076293945,29.270000457763672,29.799999237060547,31096
2025-10-29,29.799999237060547,30.170000076293945,29.43000030517578,29.549999237060547,18764
2025-10-30,29.190000534057617,30.469999313354492,29.190000534057617,29.790000915527344,31172
2025-10-31,29.329999923706055,30.0,29.0,29.139999389648438,19506
2025-11-03,29.200000762939453,29.899999618530273,29.190000534057617,29.299999237060547,11459
2025-11-04,29.389999389648438,29.389999389648438,27.350000381469727,28.260000228881836,25781
2025-11-06,28.299999237060547,28.899999618530273,28.030000686645508,28.5,27537
2025-11-07,27.5,28.799999237060547,27.049999237060547,28.15999984741211,36353
2025-11-10,27.170000076293945,30.690000534057617,27.170000076293945,29.219999313354492,28887
2025-11-11,29.360000610351562,29.3700008392334,28.399999618530273,28.940000534057617,12152
2025-11-12,28.93000030517578,29.09000015258789,28.40999984741211,28.8700008392334,7515
2025-11-13,28.25,29.489999771118164,28.0,29.020000457763672,111427
2025-11-14,29.489999771118164,30.0,28.600000381469727,29.290000915527344,22137
2025-11-17,30.0,30.190000534057617,29.5,29.899999618530273,25781
2025-11-18,29.700000762939453,30.0,29.190000534057617,29.729999542236328,38362
2025-11-19,30.5,32.0,29.25,29.8700008392334,123417
2025-11-20,30.5,30.5,29.15999984741211,29.729999542236328,84265
2025-11-21,29.170000076293945,30.0,28.299999237060547,29.1299991607666,96140
2025-11-24,28.299999237060547,29.190000534057617,28.0,28.239999771118164,32501
2025-11-25,27.329999923706055,29.899999618530273,27.329999923706055,28.790000915527344,168119
2025-11-26,30.850000381469727,30.850000381469727,28.200000762939453,28.8799991607666,110489
2025-11-27,29.940000534057617,30.399999618530273,28.309999465942383,29.799999237060547,66309
2025-11-28,30.100000381469727,30.65999984741211,29.299999237060547,30.209999084472656,15229
2025-12-01,29.899999618530273,31.479999542236328,29.190000534057617,29.75,22785
2025-12-02,29.020000457763672,30.8700008392334,29.020000457763672,29.690000534057617,41841
2025-12-03,30.59000015258789,30.600000381469727,29.260000228881836,30.09000015258789,36203
2025-12-04,30.920000076293945,30.920000076293945,29.950000762939453,29.989999771118164,34798
2025-12-05,30.790000915527344,30.790000915527344,29.549999237060547,30.139999389648438,27776
2025-12-08,30.010000228881836,30.329999923706055,29.260000228881836,29.989999771118164,34446
2025-12-09,29.799999237060547,30.84000015258789,29.799999237060547,30.280000686645508,118916
2025-12-10,30.899999618530273,31.520000457763672,30.209999084472656,31.020000457763672,36752
2025-12-11,31.290000915527344,32.0099983215332,30.799999237060547,31.06999969482422,26789
2025-12-12,31.90999984741211,31.979999542236328,30.950000762939453,31.170000076293945,38074
2025-12-15,30.600000381469727,31.989999771118164,30.0,31.389999389648438,97094
2025-12-16,30.65999984741211,31.639999389648438,30.65999984741211,31.010000228881836,23626
2025-12-17,31.260000228881836,31.469999313354492,30.549999237060547,30.56999969482422,23093
2025-12-18,31.75,31.75,30.190000534057617,30.200000762939453,26185
2025-12-19,31.059999465942383,31.059999465942383,30.5,30.600000381469727,15166
2025-12-22,31.079999923706055,31.479999542236328,30.600000381469727,31.18000030517578,38224
2025-12-23,31.700000762939453,31.700000762939453,30.649999618530273,30.860000610351562,26809
2025-12-24,31.0,31.8799991607666,30.899999618530273,30.989999771118164,25441
2025-12-26,31.610000610351562,32.29999923706055,30.899999618530273,30.940000534057617,66861
2025-12-29,31.559999465942383,33.88999938964844,31.5,31.8700008392334,80562
2025-12-30,31.399999618530273,32.459999084472656,30.889999389648438,31.65999984741211,14838
2025-12-31,33.20000076293945,35.0,31.290000915527344,32.720001220703125,113349
2026-01-01,32.720001220703125,33.09000015258789,31.5,31.700000762939453,34302
2026-01-02,33.0,33.0,31.5,31.809999465942383,18253
2026-01-05,31.700000762939453,33.29999923706055,31.399999618530273,31.610000610351562,21020
2026-01-06,33.25,33.25,31.100000381469727,31.309999465942383,7569
2026-01-07,31.299999237060547,31.979999542236328,30.899999618530273,30.90999984741211,17731
2026-01-08,32.0099983215332,32.0099983215332,30.799999237060547,30.799999237060547,19855
2026-01-09,32.31999969482422,32.31999969482422,30.899999618530273,30.90999984741211,22220
2026-01-12,30.90999984741211,31.5,29.200000762939453,30.5,15151
2026-01-13,30.6299991607666,31.8700008392334,30.5,30.5,21838
2026-01-14,32.97999954223633,32.97999954223633,30.469999313354492,30.540000915527344,33342
2026-01-16,31.149999618530273,31.200000762939453,29.25,30.6299991607666,8907
2026-01-19,30.690000534057617,35.5,30.18000030517578,34.18000030517578,299482
2026-01-20,34.290000915527344,34.9900016784668,30.299999237060547,30.520000457763672,99526
2026-01-21,29.200000762939453,31.799999237060547,29.200000762939453,30.520000457763672,38103
2026-01-22,33.5,33.5,30.510000228881836,30.860000610351562,12101
2026-01-23,30.860000610351562,32.0,30.5,30.559999465942383,23844
2026-01-27,30.559999465942383,31.540000915527344,30.5,30.670000076293945,37275
2026-01-28,30.510000228881836,31.5,30.510000228881836,30.760000228881836,18822
2026-01-29,29.399999618530273,32.04999923706055,29.399999618530273,31.34000015258789,84754
2026-01-30,31.899999618530273,31.899999618530273,30.0,30.59000015258789,107170
2026-02-02,29.450000762939453,31.579999923706055,29.450000762939453,30.200000762939453,46316
2026-02-03,29.25,31.489999771118164,29.25,30.5,27970
2026-02-04,31.260000228881836,31.440000534057617,30.25,30.700000762939453,106181
2026-02-05,30.149999618530273,31.139999389648438,30.100000381469727,30.5,46235
2026-02-06,30.489999771118164,31.0,29.5,30.540000915527344,20538
2026-02-09,30.540000915527344,31.600000381469727,29.780000686645508,31.260000228881836,19365
2026-02-10,31.510000228881836,31.510000228881836,30.709999084472656,31.020000457763672,18312
2026-02-11,30.549999237060547,31.299999237060547,30.5,30.6299991607666,45923
2026-02-12,31.479999542236328,31.479999542236328,30.40999984741211,31.010000228881836,25587
2026-02-13,31.389999389648438,31.389999389648438,30.15999984741211,30.6299991607666,27803
2026-02-16,31.5,31.5,29.649999618530273,31.1200008392334,64012
2026-02-17,31.510000228881836,31.989999771118164,30.799999237060547,31.040000915527344,31933
2026-02-18,30.260000228881836,31.350000381469727,30.260000228881836,31.030000686645508,23347
2026-02-19,30.299999237060547,31.239999771118164,30.299999237060547,30.579999923706055,30880
2026-02-20,30.700000762939453,31.280000686645508,30.610000610351562,31.06999969482422,318708
2026-02-23,31.190000534057617,32.47999954223633,30.700000762939453,31.780000686645508,283684
2026-02-24,32.45000076293945,34.900001525878906,31.5,34.5,300634
2026-02-25,36.70000076293945,40.380001068115234,35.5,37.15999984741211,747491
2026-02-26,37.5,39.0,35.20000076293945,38.47999954223633,193002
2026-02-27,38.5,40.349998474121094,34.04999923706055,35.540000915527344,270807
2026-03-02,35.5,35.5,32.25,32.95000076293945,129760
2026-03-04,32.099998474121094,35.349998474121094,32.099998474121094,33.869998931884766,57382
2026-03-05,34.790000915527344,35.31999969482422,32.31999969482422,34.31999969482422,51213
2026-03-06,35.34000015258789,38.47999954223633,34.97999954223633,35.880001068115234,227477
2026-03-09,35.869998931884766,35.869998931884766,33.75,34.560001373291016,38380
2026-03-10,36.79999923706055,41.470001220703125,35.029998779296875,38.849998474121094,418410
2026-03-11,38.849998474121094,42.0,36.7599983215332,39.40999984741211,428693
2026-03-12,39.79999923706055,39.79999923706055,35.099998474121094,36.18000030517578,504491
2026-03-13,36.18000030517578,39.0,35.599998474121094,36.7599983215332,130190
2026-03-16,35.720001220703125,36.529998779296875,34.20000076293945,35.22999954223633,207771
2026-03-17,35.2599983215332,36.099998474121094,34.11000061035156,34.33000183105469,85843
2026-03-18,34.84000015258789,35.0,34.0,34.2599983215332,59459
2026-03-19,33.900001525878906,34.77000045776367,33.5,33.56999969482422,83212
2026-03-20,33.310001373291016,34.0,32.90999984741211,32.97999954223633,61193
2026-03-23,32.900001525878906,33.900001525878906,29.100000381469727,30.010000228881836,347825
2026-03-24,29.799999237060547,31.540000915527344,29.799999237060547,31.190000534057617,115420
2026-03-25,30.799999237060547,31.950000762939453,30.799999237060547,31.020000457763672,66919
2026-03-27,31.020000457763672,31.780000686645508,30.399999618530273,30.459999084472656,76320
2026-03-30,30.899999618530273,32.0,28.559999465942383,29.75,97814
2026-04-01,30.25,31.790000915527344,30.0,30.229999542236328,99485
2026-04-02,30.239999771118164,30.510000228881836,29.799999237060547,30.15999984741211,56852
2026-04-06,30.0,30.700000762939453,30.0,30.329999923706055,47909
2026-04-07,30.329999923706055,30.5,30.0,30.25,28681
2026-04-08,31.200000762939453,31.489999771118164,30.299999237060547,30.399999618530273,101867
2026-04-09,30.059999465942383,30.93000030517578,30.059999465942383,30.719999313354492,16407
2026-04-10,31.40999984741211,33.849998474121094,30.56999969482422,33.4900016784668,204306
2026-04-13,33.0099983215332,34.83000183105469,32.58000183105469,34.040000915527344,69462
2026-04-15,35.04999923706055,35.849998474121094,34.060001373291016,35.040000915527344,65903
2026-04-16,35.939998626708984,35.939998626708984,34.29999923706055,35.060001373291016,35054
2026-04-17,34.400001525878906,36.45000076293945,34.400001525878906,36.04999923706055,82085
2026-04-20,34.400001525878906,35.9900016784668,33.20000076293945,33.38999938964844,65288
2026-04-21,33.0,34.18000030517578,33.0,33.0099983215332,16328
2026-04-22,33.0099983215332,34.4900016784668,33.0,33.470001220703125,38074
2026-04-23,33.68000030517578,33.779998779296875,32.599998474121094,32.790000915527344,27930
2026-04-24,32.11000061035156,33.540000915527344,32.11000061035156,32.599998474121094,11285
2026-04-27,32.599998474121094,32.959999084472656,31.200000762939453,31.889999389648438,30552
2026-04-28,32.09000015258789,32.150001525878906,31.5,31.530000686645508,14862
2026-04-29,31.520000457763672,33.70000076293945,31.520000457763672,32.119998931884766,25471
2026-04-30,31.309999465942383,32.939998626708984,31.309999465942383,32.31999969482422,21140
2026-05-04,32.34000015258789,33.16999816894531,31.56999969482422,32.04999923706055,19490
2026-05-05,32.06999969482422,34.400001525878906,31.899999618530273,32.400001525878906,100401
2026-05-06,32.400001525878906,32.959999084472656,31.899999618530273,32.11000061035156,23224
2026-05-07,32.0,32.68000030517578,31.899999618530273,32.22999954223633,17411
2026-05-08,32.0,32.400001525878906,31.350000381469727,32.099998474121094,63901
2026-05-11,31.510000228881836,32.5,31.510000228881836,31.979999542236328,9654
2026-05-12,31.989999771118164,33.0,30.010000228881836,30.6299991607666,38235
2026-05-13,30.31999969482422,31.200000762939453,30.200000762939453,30.420000076293945,31845
2026-05-14,30.079999923706055,31.469999313354492,30.079999923706055,30.920000076293945,13865
2026-05-15,30.770000457763672,31.25,28.100000381469727,29.1200008392334,102209
2026-05-18,29.899999618530273,31.200000762939453,28.299999237060547,30.280000686645508,60596
2026-05-19,30.25,31.290000915527344,29.6200008392334,29.799999237060547,19237
2026-05-20,30.0,30.200000762939453,29.600000381469727,29.709999084472656,11382
2026-05-21,30.0,30.399999618530273,28.989999771118164,29.3700008392334,28687
2026-05-22,29.0,29.729999542236328,28.5,28.979999542236328,27838
2026-05-25,29.290000915527344,29.989999771118164,28.100000381469727,28.809999465942383,25382
2026-05-26,28.809999465942383,29.350000381469727,28.389999389648438,28.989999771118164,14224
2026-05-27,28.989999771118164,31.34000015258789,28.989999771118164,29.690000534057617,47255
2026-05-28,29.690000534057617,29.690000534057617,29.690000534057617,29.690000534057617,0
2026-05-29,29.829999923706055,30.520000457763672,29.030000686645508,29.68000030517578,23793
2026-06-01,29.68000030517578,30.389999389648438,29.200000762939453,29.209999084472656,10996
2026-06-02,29.75,29.979999542236328,29.399999618530273,29.489999771118164,16875
2026-06-03,29.549999237060547,29.799999237060547,28.969999313354492,29.049999237060547,28810
2026-06-04,29.0,29.940000534057617,28.799999237060547,29.31999969482422,15772
2026-06-05,29.010000228881836,30.25,29.010000228881836,29.559999465942383,15430
2026-06-08,29.65999984741211,30.399999618530273,28.200000762939453,29.739999771118164,18217
2026-06-09,28.850000381469727,29.989999771118164,28.850000381469727,29.030000686645508,13304
2026-06-10,28.5,30.100000381469727,28.5,29.540000915527344,19011
2026-06-11,29.5,30.229999542236328,28.600000381469727,28.989999771118164,19459
2026-06-12,28.889999389648438,29.799999237060547,28.100000381469727,29.149999618530273,42389
2026-06-15,29.700000762939453,30.170000076293945,29.25,29.809999465942383,4019
2026-06-16,30.200000762939453,30.200000762939453,29.209999084472656,29.6200008392334,5748
2026-06-17,29.5,29.989999771118164,29.350000381469727,29.81999969482422,9675
2026-06-18,30.0,30.459999084472656,29.309999465942383,29.8799991607666,22895
2026-06-19,29.8799991607666,30.190000534057617,28.65999984741211,29.270000457763672,42976
2026-06-22,29.270000457763672,29.75,29.0,29.100000381469727,19371
2026-06-23,29.350000381469727,29.889999389648438,29.049999237060547,29.5,10447
2026-06-24,29.579999923706055,29.790000915527344,28.5,29.200000762939453,16918
2026-06-25,29.299999237060547,29.829999923706055,28.399999618530273,29.059999465942383,11411
2026-06-26,29.059999465942383,29.059999465942383,29.059999465942383,29.059999465942383,0
2026-06-29,28.5,29.799999237060547,28.5,28.719999313354492,6733
2026-06-30,29.09000015258789,29.5,28.899999618530273,29.149999618530273,11077
2026-07-01,29.799999237060547,29.799999237060547,28.959999084472656,29.020000457763672,7662
2026-07-02,29.350000381469727,30.190000534057617,27.899999618530273,28.670000076293945,29664
2026-07-03,28.600000381469727,29.260000228881836,28.549999237060547,28.979999542236328,14186
2026-07-06,28.600000381469727,29.450000762939453,28.549999237060547,28.899999618530273,7716
2026-07-07,28.760000228881836,29.18000030517578,28.6200008392334,28.719999313354492,4431
2026-07-08,28.5,28.989999771118164,28.0,28.510000228881836,10697
2026-07-09,28.719999313354492,29.850000381469727,28.399999618530273,29.049999237060547,29704
2026-07-10,29.100000381469727,29.8700008392334,28.719999313354492,29.209999084472656,2203
2026-07-13,29.190000534057617,29.959999084472656,28.700000762939453,29.1200008392334,10860
2026-07-14,29.1200008392334,29.799999237060547,28.510000228881836,29.229999542236328,3986
2026-07-15,29.229999542236328,29.899999618530273,28.31999969482422,28.950000762939453,32039
2026-07-16,29.299999237060547,29.899999618530273,28.5,28.610000610351562,18070
2026-07-17,28.610000610351562,29.360000610351562,28.399999618530273,28.84000015258789,3780
2026-07-20,28.84000015258789,28.989999771118164,28.40999984741211,28.850000381469727,5477
2026-07-21,28.5,29.25,28.5,29.049999237060547,10602
2026-07-22,29.040000915527344,29.18000030517578,27.1200008392334,27.93000030517578,39441
2026-07-23,28.059999465942383,29.940000534057617,28.049999237060547,28.479999542236328,73691
2026-07-24,28.479999542236328,28.969999313354492,27.690000534057617,28.56999969482422,23096
2026-07-27,28.739999771118164,29.100000381469727,28.100000381469727,28.520000457763672,12069
2026-07-28,28.530000686645508,29.399999618530273,28.520000457763672,28.770000457763672,8191
2026-07-29,28.510000228881836,29.479999542236328,28.5,28.68000030517578,8219
2026-07-30,28.5,29.31999969482422,28.350000381469727,28.81999969482422,7616
2026-07-31,28.5,28.709999084472656,28.020000457763672,28.389999389648438,24068
2026-08-03,28.389999389648438,31.989999771118164,28.389999389648438,30.850000381469727,96270
2026-08-04,30.5,34.20000076293945,29.299999237060547,33.369998931884766,379957
2026-08-05,33.529998779296875,34.47999954223633,32.70000076293945,33.45000076293945,212385
2026-08-06,33.5,34.0,31.510000228881836,33.52000045776367,77454
2026-08-07,33.68000030517578,33.68000030517578,32.5099983215332,33.08000183105469,11397
2026-08-10,32.349998474121094,35.0,32.25,33.7599983215332,109113
2026-08-11,34.0,34.0,32.90999984741211,33.36000061035156,51060
2026-08-12,33.36000061035156,34.5,33.11000061035156,33.470001220703125,19116
2026-08-13,32.83000183105469,34.099998474121094,31.51000022888184,31.8799991607666,40554
2026-08-14,31.5,33.29999923706055,30.899999618530277,31.6200008392334,11064
2026-08-17,31.0,33.439998626708984,31.0,32.779998779296875,23649
2026-08-18,32.869998931884766,33.900001525878906,31.950000762939453,33.540000915527344,22579
2026-08-19,32.650001525878906,33.5,31.600000381469727,32.400001525878906,6278
2026-08-20,32.5,32.95000076293945,30.700000762939453,31.65999984741211,17981
2026-08-21,32.88999938964844,32.88999938964844,31.21999931335449,31.790000915527344,5205
2026-08-24,33.20000076293945,33.20000076293945,31.34000015258789,31.82999992370605,9935
2026-08-25,31.190000534057617,31.88999938964844,30.25,31.790000915527344,7527
2026-08-26,31.030000686645508,32.189998626708984,31.030000686645508,31.809999465942383,19414
2026-08-27,32.0,33.4900016784668,31.75,32.77000045776367,32254
2026-08-28,32.95000076293945,33.0,31.5,31.799999237060547,11248
2026-08-31,30.56999969482422,32.349998474121094,30.56999969482422,31.31999969482422,10106
2026-09-01,30.799999237060547,32.15999984741211,30.76000022888184,31.489999771118164,19126
2026-09-02,31.799999237060547,31.799999237060547,30.81999969482422,31.200000762939453,6736
2026-09-03,31.88999938964844,32.79999923706055,30.5,32.349998474121094,39050
2026-09-04,32.959999084472656,32.959999084472656,31.65999984741211,31.75,4990
2026-09-07,31.43000030517578,32.95000076293945,31.149999618530273,32.63999938964844,35616
